# Pulseq sequence file
# Created by PyPulseq

[VERSION]
major 1
minor 3
revision 1

[DEFINITIONS]
Name 20210721_3Dream_beta5 
FOV 0.2 0.2 0.2 

# Format of blocks:
#  #  D RF  GX  GY  GZ ADC EXT
[BLOCKS]
   1  1  0   0   0   0  1  0
   2  1  0   0   0   0  1  0
   3  1  0   0   0   0  1  0
   4  1  0   0   0   0  1  0
   5  1  0   0   0   0  1  0
   6  1  0   0   0   0  1  0
   7  1  0   0   0   0  1  0
   8  1  0   0   0   0  1  0
   9  1  0   0   0   0  1  0
  10  1  0   0   0   0  1  0
  11  1  0   0   0   0  1  0
  12  1  0   0   0   0  1  0
  13  1  0   0   0   0  1  0
  14  1  0   0   0   0  1  0
  15  1  0   0   0   0  1  0
  16  1  0   0   0   0  1  0
  17  2  1   0   0   1  0  0
  18  0  0   2   3   4  0  0
  19  3  0   0   0   0  0  0
  20  0  0   5   0   0  0  0
  21  0  0   0   6   7  0  0
  22  4  0   0   0   0  0  0
  23  2  2   0   0   1  0  0
  24  0  0   2   3   4  0  0
  25  3  0   0   0   0  0  0
  26  0  0   5   0   0  0  0
  27  0  0   0   6   7  0  0
  28  4  0   0   0   0  0  0
  29  2  3   0   0   1  0  0
  30  0  0   2   3   4  0  0
  31  3  0   0   0   0  0  0
  32  0  0   5   0   0  0  0
  33  0  0   0   6   7  0  0
  34  4  0   0   0   0  0  0
  35  2  4   0   0   1  0  0
  36  0  0   2   3   4  0  0
  37  3  0   0   0   0  0  0
  38  0  0   5   0   0  0  0
  39  0  0   0   6   7  0  0
  40  4  0   0   0   0  0  0
  41  2  5   0   0   1  0  0
  42  0  0   2   3   4  0  0
  43  3  0   0   0   0  0  0
  44  0  0   5   0   0  0  0
  45  0  0   0   6   7  0  0
  46  4  0   0   0   0  0  0
  47  2  6   0   0   1  0  0
  48  0  0   2   3   4  0  0
  49  3  0   0   0   0  0  0
  50  0  0   5   0   0  2  0
  51  0  0   0   6   7  0  0
  52  4  0   0   0   0  0  0
  53  2  7   0   0   1  0  0
  54  0  0   2   3   8  0  0
  55  3  0   0   0   0  0  0
  56  0  0   5   0   0  3  0
  57  0  0   0   6   9  0  0
  58  4  0   0   0   0  0  0
  59  2  8   0   0   1  0  0
  60  0  0   2  10   8  0  0
  61  3  0   0   0   0  0  0
  62  0  0   5   0   0  4  0
  63  0  0   0  11   9  0  0
  64  4  0   0   0   0  0  0
  65  2  9   0   0   1  0  0
  66  0  0   2  10   4  0  0
  67  3  0   0   0   0  0  0
  68  0  0   5   0   0  5  0
  69  0  0   0  11   7  0  0
  70  4  0   0   0   0  0  0
  71  2 10   0   0   1  0  0
  72  0  0   2  10  12  0  0
  73  3  0   0   0   0  0  0
  74  0  0   5   0   0  6  0
  75  0  0   0  11  13  0  0
  76  4  0   0   0   0  0  0
  77  2  6   0   0   1  0  0
  78  0  0   2   3  12  0  0
  79  3  0   0   0   0  0  0
  80  0  0   5   0   0  2  0
  81  0  0   0   6  13  0  0
  82  4  0   0   0   0  0  0
  83  2 11   0   0   1  0  0
  84  0  0   2  14  12  0  0
  85  3  0   0   0   0  0  0
  86  0  0   5   0   0  7  0
  87  0  0   0  15  13  0  0
  88  4  0   0   0   0  0  0
  89  2 12   0   0   1  0  0
  90  0  0   2  14   4  0  0
  91  3  0   0   0   0  0  0
  92  0  0   5   0   0  8  0
  93  0  0   0  15   7  0  0
  94  4  0   0   0   0  0  0
  95  2 13   0   0   1  0  0
  96  0  0   2  14   8  0  0
  97  3  0   0   0   0  0  0
  98  0  0   5   0   0  9  0
  99  0  0   0  15   9  0  0
 100  4  0   0   0   0  0  0
 101  2 14   0   0   1  0  0
 102  0  0   2  14  16  0  0
 103  3  0   0   0   0  0  0
 104  0  0   5   0   0 10  0
 105  0  0   0  15  17  0  0
 106  4  0   0   0   0  0  0
 107  2  1   0   0   1  0  0
 108  0  0   2   3  16  0  0
 109  3  0   0   0   0  0  0
 110  0  0   5   0   0 11  0
 111  0  0   0   6  17  0  0
 112  4  0   0   0   0  0  0
 113  2 15   0   0   1  0  0
 114  0  0   2  10  16  0  0
 115  3  0   0   0   0  0  0
 116  0  0   5   0   0 12  0
 117  0  0   0  11  17  0  0
 118  4  0   0   0   0  0  0
 119  2 16   0   0   1  0  0
 120  0  0   2  18  16  0  0
 121  3  0   0   0   0  0  0
 122  0  0   5   0   0 13  0
 123  0  0   0  19  17  0  0
 124  4  0   0   0   0  0  0
 125  2 13   0   0   1  0  0
 126  0  0   2  18   8  0  0
 127  3  0   0   0   0  0  0
 128  0  0   5   0   0  9  0
 129  0  0   0  19   9  0  0
 130  4  0   0   0   0  0  0
 131  2 17   0   0   1  0  0
 132  0  0   2  18   4  0  0
 133  3  0   0   0   0  0  0
 134  0  0   5   0   0 14  0
 135  0  0   0  19   7  0  0
 136  4  0   0   0   0  0  0
 137  2  5   0   0   1  0  0
 138  0  0   2  18  12  0  0
 139  3  0   0   0   0  0  0
 140  0  0   5   0   0 15  0
 141  0  0   0  19  13  0  0
 142  4  0   0   0   0  0  0
 143  2 18   0   0   1  0  0
 144  0  0   2  18  20  0  0
 145  3  0   0   0   0  0  0
 146  0  0   5   0   0 16  0
 147  0  0   0  19  21  0  0
 148  4  0   0   0   0  0  0
 149  2 19   0   0   1  0  0
 150  0  0   2  10  20  0  0
 151  3  0   0   0   0  0  0
 152  0  0   5   0   0 17  0
 153  0  0   0  11  21  0  0
 154  4  0   0   0   0  0  0
 155  2  9   0   0   1  0  0
 156  0  0   2   3  20  0  0
 157  3  0   0   0   0  0  0
 158  0  0   5   0   0  5  0
 159  0  0   0   6  21  0  0
 160  4  0   0   0   0  0  0
 161  2 20   0   0   1  0  0
 162  0  0   2  14  20  0  0
 163  3  0   0   0   0  0  0
 164  0  0   5   0   0 18  0
 165  0  0   0  15  21  0  0
 166  4  0   0   0   0  0  0
 167  2 10   0   0   1  0  0
 168  0  0   2  22  20  0  0
 169  3  0   0   0   0  0  0
 170  0  0   5   0   0  6  0
 171  0  0   0  23  21  0  0
 172  4  0   0   0   0  0  0
 173  2 18   0   0   1  0  0
 174  0  0   2  22  12  0  0
 175  3  0   0   0   0  0  0
 176  0  0   5   0   0 16  0
 177  0  0   0  23  13  0  0
 178  4  0   0   0   0  0  0
 179  2 21   0   0   1  0  0
 180  0  0   2  22   4  0  0
 181  3  0   0   0   0  0  0
 182  0  0   5   0   0 19  0
 183  0  0   0  23   7  0  0
 184  4  0   0   0   0  0  0
 185  2  4   0   0   1  0  0
 186  0  0   2  22   8  0  0
 187  3  0   0   0   0  0  0
 188  0  0   5   0   0 20  0
 189  0  0   0  23   9  0  0
 190  4  0   0   0   0  0  0
 191  2 22   0   0   1  0  0
 192  0  0   2  22  16  0  0
 193  3  0   0   0   0  0  0
 194  0  0   5   0   0 21  0
 195  0  0   0  23  17  0  0
 196  4  0   0   0   0  0  0
 197  2 14   0   0   1  0  0
 198  0  0   2  22  24  0  0
 199  3  0   0   0   0  0  0
 200  0  0   5   0   0 10  0
 201  0  0   0  23  25  0  0
 202  4  0   0   0   0  0  0
 203  2 15   0   0   1  0  0
 204  0  0   2  14  24  0  0
 205  3  0   0   0   0  0  0
 206  0  0   5   0   0 12  0
 207  0  0   0  15  25  0  0
 208  4  0   0   0   0  0  0
 209  2 23   0   0   1  0  0
 210  0  0   2   3  24  0  0
 211  3  0   0   0   0  0  0
 212  0  0   5   0   0 22  0
 213  0  0   0   6  25  0  0
 214  4  0   0   0   0  0  0
 215  2  2   0   0   1  0  0
 216  0  0   2  10  24  0  0
 217  3  0   0   0   0  0  0
 218  0  0   5   0   0 23  0
 219  0  0   0  11  25  0  0
 220  4  0   0   0   0  0  0
 221  2 22   0   0   1  0  0
 222  0  0   2  18  24  0  0
 223  3  0   0   0   0  0  0
 224  0  0   5   0   0 21  0
 225  0  0   0  19  25  0  0
 226  4  0   0   0   0  0  0
 227  2 17   0   0   1  0  0
 228  0  0   2  26  24  0  0
 229  3  0   0   0   0  0  0
 230  0  0   5   0   0 14  0
 231  0  0   0  27  25  0  0
 232  4  0   0   0   0  0  0
 233  2 11   0   0   1  0  0
 234  0  0   2  26  16  0  0
 235  3  0   0   0   0  0  0
 236  0  0   5   0   0  7  0
 237  0  0   0  27  17  0  0
 238  4  0   0   0   0  0  0
 239  2 24   0   0   1  0  0
 240  0  0   2  26   8  0  0
 241  3  0   0   0   0  0  0
 242  0  0   5   0   0 24  0
 243  0  0   0  27   9  0  0
 244  4  0   0   0   0  0  0
 245  2  7   0   0   1  0  0
 246  0  0   2  26   4  0  0
 247  3  0   0   0   0  0  0
 248  0  0   5   0   0  3  0
 249  0  0   0  27   7  0  0
 250  4  0   0   0   0  0  0
 251  2 20   0   0   1  0  0
 252  0  0   2  26  12  0  0
 253  3  0   0   0   0  0  0
 254  0  0   5   0   0 18  0
 255  0  0   0  27  13  0  0
 256  4  0   0   0   0  0  0
 257  2 20   0   0   1  0  0
 258  0  0   2  26  20  0  0
 259  3  0   0   0   0  0  0
 260  0  0   5   0   0 18  0
 261  0  0   0  27  21  0  0
 262  4  0   0   0   0  0  0
 263  2  7   0   0   1  0  0
 264  0  0   2  26  28  0  0
 265  3  0   0   0   0  0  0
 266  0  0   5   0   0  3  0
 267  0  0   0  27  29  0  0
 268  4  0   0   0   0  0  0
 269  2 24   0   0   1  0  0
 270  0  0   2  18  28  0  0
 271  3  0   0   0   0  0  0
 272  0  0   5   0   0 24  0
 273  0  0   0  19  29  0  0
 274  4  0   0   0   0  0  0
 275  2 11   0   0   1  0  0
 276  0  0   2  10  28  0  0
 277  3  0   0   0   0  0  0
 278  0  0   5   0   0  7  0
 279  0  0   0  11  29  0  0
 280  4  0   0   0   0  0  0
 281  2 17   0   0   1  0  0
 282  0  0   2   3  28  0  0
 283  3  0   0   0   0  0  0
 284  0  0   5   0   0 14  0
 285  0  0   0   6  29  0  0
 286  4  0   0   0   0  0  0
 287  2 22   0   0   1  0  0
 288  0  0   2  14  28  0  0
 289  3  0   0   0   0  0  0
 290  0  0   5   0   0 21  0
 291  0  0   0  15  29  0  0
 292  4  0   0   0   0  0  0
 293  2  2   0   0   1  0  0
 294  0  0   2  22  28  0  0
 295  3  0   0   0   0  0  0
 296  0  0   5   0   0 23  0
 297  0  0   0  23  29  0  0
 298  4  0   0   0   0  0  0
 299  2 23   0   0   1  0  0
 300  0  0   2  30  28  0  0
 301  3  0   0   0   0  0  0
 302  0  0   5   0   0 22  0
 303  0  0   0  31  29  0  0
 304  4  0   0   0   0  0  0
 305  2 15   0   0   1  0  0
 306  0  0   2  30  20  0  0
 307  3  0   0   0   0  0  0
 308  0  0   5   0   0 12  0
 309  0  0   0  31  21  0  0
 310  4  0   0   0   0  0  0
 311  2 14   0   0   1  0  0
 312  0  0   2  30  12  0  0
 313  3  0   0   0   0  0  0
 314  0  0   5   0   0 10  0
 315  0  0   0  31  13  0  0
 316  4  0   0   0   0  0  0
 317  2 22   0   0   1  0  0
 318  0  0   2  30   4  0  0
 319  3  0   0   0   0  0  0
 320  0  0   5   0   0 21  0
 321  0  0   0  31   7  0  0
 322  4  0   0   0   0  0  0
 323  2  4   0   0   1  0  0
 324  0  0   2  30   8  0  0
 325  3  0   0   0   0  0  0
 326  0  0   5   0   0 20  0
 327  0  0   0  31   9  0  0
 328  4  0   0   0   0  0  0
 329  2 21   0   0   1  0  0
 330  0  0   2  30  16  0  0
 331  3  0   0   0   0  0  0
 332  0  0   5   0   0 19  0
 333  0  0   0  31  17  0  0
 334  4  0   0   0   0  0  0
 335  2 18   0   0   1  0  0
 336  0  0   2  30  24  0  0
 337  3  0   0   0   0  0  0
[RF]
1      127.778 1 2 100 0 0
2      127.778 1 2 100 0 2.04204
3      127.778 1 2 100 0 6.12611
4      127.778 1 2 100 0 5.96903
5      127.778 1 2 100 0 1.5708
6      127.778 1 2 100 0 5.49779
7      127.778 1 2 100 0 5.18363
8      127.778 1 2 100 0 0.628319
9      127.778 1 2 100 0 4.39823
10      127.778 1 2 100 0 3.92699
11      127.778 1 2 100 0 2.82743
12      127.778 1 2 100 0 2.19911
13      127.778 1 2 100 0 3.61283
14      127.778 1 2 100 0 0.785398
15      127.778 1 2 100 0 1.25664
16      127.778 1 2 100 0 4.55531
17      127.778 1 2 100 0 4.71239
18      127.778 1 2 100 0 0.471239
19      127.778 1 2 100 0 1.41372
20      127.778 1 2 100 0 3.14159
21      127.778 1 2 100 0 5.34071
22      127.778 1 2 100 0 2.35619
23      127.778 1 2 100 0 3.76991
24      127.778 1 2 100 0 2.98451
25      308.172 3 4 100 -981 0
26      347.222 5 6 100 0 0
27       209.11 7 8 100 0 0

# Format of arbitrary gradients:
# id amplitude shape_id delay
# ..      Hz/m     ....    us
[GRADIENTS]
90       710758 9 20
91       759359 10 20
95       774498 11 20
96       727334 12 20
99       743538 13 20
100       714851 14 20
104       754153 15 20
105       705110 16 20
109       721849 17 20
110       769565 18 20
113       750261 19 20
114       738179 20 20
118       732781 21 20
119       771780 22 20
123       699366 23 20
124       748875 24 20
127       764513 25 20
128       716331 26 20

# Format of trapezoid gradients:
# id amplitude rise flat fall delay
# ..      Hz/m   us   us   us    us
[TRAP]
 1        57500  20 2000  20  80
 2      -742857 140    0 140   0
 3            0  10  260  10   0
 4      -252500  50  180  50   0
 5       200000  40 1000  40   0
 6           -0  10 1540  10   0
 7   2.1481e+06 390  780 390   0
 8      -274239  50  180  50   0
 9  2.15237e+06 390  780 390   0
10     -18518.5  10  260  10   0
11      3225.81  10 1540  10   0
12      -221146  40  200  40   0
13  2.14382e+06 390  780 390   0
14      18518.5  10  260  10   0
15     -3225.81  10 1540  10   0
16      -309432  60  160  60   0
17  2.15664e+06 390  780 390   0
18       -37037  10  260  10   0
19      6451.61  10 1540  10   0
20      -200312  40  200  40   0
21  2.13955e+06 390  780 390   0
22        37037  10  260  10   0
23     -6451.61  10 1540  10   0
24      -347976  70  140  70   0
25  2.17955e+06 400  760 400   0
26     -57692.3  20  240  20   0
27      9677.42  10 1540  10   0
28      -179479  40  200  40   0
29  2.13528e+06 390  780 390   0
30      57692.3  20  240  20   0
31     -9677.42  10 1540  10   0
32      -371786  70  140  70   0
33  2.18386e+06 400  760 400   0
34     -76923.1  20  240  20   0
35      12903.2  10 1540  10   0
36      -152300  30  220  30   0
37    2.131e+06 390  780 390   0
38      76923.1  20  240  20   0
39     -12903.2  10 1540  10   0
40      -415375  80  120  80   0
41  2.18817e+06 400  760 400   0
42     -96153.8  20  240  20   0
43        16129  10 1540  10   0
44      -132300  30  220  30   0
45  2.12673e+06 390  780 390   0
46      96153.8  20  240  20   0
47       -16129  10 1540  10   0
48      -440375  80  120  80   0
49  2.19248e+06 400  760 400   0
50      -120000  30  220  30   0
51      19354.8  10 1540  10   0
52      -107981  20  240  20   0
53  2.12246e+06 390  780 390   0
54       120000  30  220  30   0
55     -19354.8  10 1540  10   0
56      -489868  90  100  90   0
57  2.19679e+06 400  760 400   0
58      -140000  30  220  30   0
59      22580.6  10 1540  10   0
60       -88750  20  240  20   0
61  2.10023e+06 380  800 380   0
62       140000  30  220  30   0
63     -22580.6  10 1540  10   0
64      -544861 100   80 100   0
65   2.2011e+06 400  760 400   0
66      -160000  30  220  30   0
67      25806.5  10 1540  10   0
68     -69519.2  20  240  20   0
69    2.096e+06 380  800 380   0
70       160000  30  220  30   0
71     -25806.5  10 1540  10   0
72      -606324 110   60 110   0
73  2.20541e+06 400  760 400   0
74      -187500  40  200  40   0
75      29032.3  10 1540  10   0
76     -48425.9  10  260  10   0
77  2.09176e+06 380  800 380   0
78       187500  40  200  40   0
79     -29032.3  10 1540  10   0
80      -771964 140   -0 140   0
81  2.20972e+06 400  760 400   0
82      -208333  40  200  40   0
83      32258.1  10 1540  10   0
84  2.32711e+06 550  530 550 100
85      1.5e+06 200    0 200   0
86  2.32711e+06 690  390 690   0
87       150000  20  200  20  80
88      -366667  90    0  90   0
89      -645918  90  400  90   0
92      -270139  70    0  70   0
93      -613462 160    0 160   0
94  1.88968e+06 250 1080 250   0
97      -539635 140    0 140   0
98       503487 130    0 130   0
101       629725 150    0 150   0
102       363341  90    0  90   0
103      -666327  90  400  90   0
106      -624665 160    0 160   0
107      78910.3  20    0  20   0
108   1.8972e+06 250 1080 250   0
111       466727 110    0 110   0
112       571780 150    0 150   0
115       441877 110    0 110   0
116      -582302 150    0 150   0
117      -613000  80  420  80   0
120      -554128 140    0 140   0
121      -484887 130    0 130   0
122  1.88216e+06 250 1080 250   0
125      -225733  70    0  70   0
126       616888 160    0 160   0
129       622528 150    0 150   0
130      -356667 100    0 100   0
131      -686735  90  400  90   0
132  1.90472e+06 250 1080 250   0
133      -593000  80  420  80   0
134  1.87464e+06 250 1080 250   0
135      -721875 100  380 100   0
136  1.91224e+06 250 1080 250   0
137      -573000  80  420  80   0
138  1.86712e+06 250 1080 250   0
139      -742708 100  380 100   0
140   1.9343e+06 260 1060 260   0
141      -553000  80  420  80   0
142   1.8596e+06 250 1080 250   0
143      -763542 100  380 100   0
144  1.94187e+06 260 1060 260   0
145      -522549  70  440  70   0
146  1.83826e+06 240 1100 240   0
147      -801064 110  360 110   0
148  1.94945e+06 260 1060 260   0
149      -502941  70  440  70   0
150   1.8308e+06 240 1100 240   0
151      -822340 110  360 110   0
152  1.95703e+06 260 1060 260   0
153      -483333  70  440  70   0
154  1.82334e+06 240 1100 240   0
155      -861957 120  340 120   0
156   1.9646e+06 260 1060 260   0
157      -454808  60  460  60   0
158  1.81588e+06 240 1100 240   0
159      -883696 120  340 120   0
160  1.97218e+06 260 1060 260   0
161      -435577  60  460  60   0
162  1.80841e+06 240 1100 240   0
163      -905435 120  340 120   0
164  1.97975e+06 260 1060 260   0

# Format of ADC events:
# id num dwell delay freq phase
# ..  ..    ns    us   Hz   rad
[ADC]
1 256 2000 0 0 0
2 80 12500 40 0 5.49779
3 80 12500 40 0 5.18363
4 80 12500 40 0 0.628319
5 80 12500 40 0 4.39823
6 80 12500 40 0 3.92699
7 80 12500 40 0 2.82743
8 80 12500 40 0 2.19911
9 80 12500 40 0 3.61283
10 80 12500 40 0 0.785398
11 80 12500 40 0 0
12 80 12500 40 0 1.25664
13 80 12500 40 0 4.55531
14 80 12500 40 0 4.71239
15 80 12500 40 0 1.5708
16 80 12500 40 0 0.471239
17 80 12500 40 0 1.41372
18 80 12500 40 0 3.14159
19 80 12500 40 0 5.34071
20 80 12500 40 0 5.96903
21 80 12500 40 0 2.35619
22 80 12500 40 0 3.76991
23 80 12500 40 0 2.04204
24 80 12500 40 0 2.98451
25 80 12500 40 0 6.12611
26 416 3200 0 0 0

# Format of delays:
# id delay (us)
[DELAYS]
1 1520
2 2110
3 60
4 100
5 5000000
6 2230
7 530
8 2070
9 0
10 310
11 10
12 1540
13 1000
14 80

# Sequence Shapes
[SHAPES]

shape_id 1
num_samples 2000
1e-07
2e-07
3e-07
5e-07
6e-07
7e-07
9e-07
9e-07
0
1.1e-06
1.2e-06
1.2e-06
0
1.3e-06
1.4e-06
1.5e-06
1.5e-06
5
1.4e-06
1.4e-06
0
1.2e-06
1.2e-06
0
1e-06
9e-07
7e-07
5e-07
3e-07
1e-07
-1e-07
-4e-07
-7e-07
-1e-06
-1.3e-06
-1.6e-06
-2e-06
-2.4e-06
-2.7e-06
-3.2e-06
-3.5e-06
-4e-06
-4.4e-06
3e-07
5.3e-06
5.9e-06
6.3e-06
6.7e-06
7.3e-06
7.8e-06
8.2e-06
8.8e-06
9.3e-06
9.7e-06
1.03e-05
1.07e-05
1.12e-05
1.17e-05
1.22e-05
1.26e-05
1.3e-05
1.35e-05
1.38e-05
1.43e-05
1.45e-05
1.5e-05
1.52e-05
1.55e-05
1.58e-05
1.6e-05
1.62e-05
1.64e-05
1.64e-05
0
1.66e-05
1.66e-05
2
1.65e-05
1.64e-05
1.63e-05
1.6e-05
1.57e-05
1.55e-05
1.51e-05
1.46e-05
1.43e-05
1.37e-05
1.31e-05
1.26e-05
1.18e-05
1.12e-05
1.03e-05
9.6e-06
8.6e-06
7.8e-06
6.7e-06
5.8e-06
4.6e-06
3.5e-06
2.3e-06
1.1e-06
-2e-07
-1.6e-06
-2.9e-06
-4.3e-06
-5.7e-06
-7.3e-06
-8.7e-06
-1.04e-05
-1.19e-05
-1.35e-05
-1.52e-05
-1.69e-05
-1.86e-05
-2.03e-05
-2.2e-05
-2.38e-05
-2.55e-05
-2.73e-05
-2.9e-05
-3.09e-05
-3.26e-05
-3.43e-05
-3.61e-05
-3.78e-05
-3.96e-05
-4.12e-05
-4.29e-05
-4.45e-05
-4.61e-05
6.6e-06
4.92e-05
5.07e-05
5.21e-05
5.35e-05
5.49e-05
5.61e-05
5.72e-05
5.84e-05
5.95e-05
6.04e-05
6.14e-05
6.21e-05
6.28e-05
6.35e-05
6.41e-05
6.44e-05
6.48e-05
6.51e-05
6.51e-05
0
6.52e-05
6.51e-05
6.49e-05
6.45e-05
6.41e-05
6.36e-05
6.28e-05
6.2e-05
6.11e-05
6.01e-05
5.88e-05
5.75e-05
5.6e-05
5.45e-05
5.27e-05
5.09e-05
4.89e-05
4.69e-05
4.45e-05
4.22e-05
3.98e-05
3.71e-05
3.43e-05
3.16e-05
2.85e-05
2.54e-05
2.23e-05
1.89e-05
1.54e-05
1.2e-05
8.3e-06
4.6e-06
7e-07
-3.1e-06
-7.1e-06
-1.12e-05
-1.54e-05
-1.95e-05
-2.39e-05
-2.81e-05
-3.26e-05
-3.69e-05
-4.14e-05
-4.59e-05
-5.05e-05
-5.49e-05
-5.95e-05
-6.4e-05
-6.86e-05
-7.31e-05
-7.76e-05
-8.21e-05
-8.66e-05
-9.09e-05
-9.53e-05
-9.96e-05
-0.0001038
-0.000108
-0.000112
-0.0001161
-0.0001199
-0.0001236
-0.0001274
-0.0001308
-0.0001343
-0.0001375
-0.0001407
3.2e-05
0.0001464
0.000149
0.0001515
0.0001537
0.0001559
0.0001577
0.0001594
0.0001608
0.0001621
0.0001632
0.0001639
0.0001645
0.0001649
0.0001649
0
0.0001648
0.0001643
0.0001637
0.0001628
0.0001615
0.0001602
0.0001584
0.0001564
0.0001542
0.0001516
0.0001489
0.0001457
0.0001425
0.0001388
0.0001349
0.0001308
0.0001264
0.0001217
0.0001167
0.0001115
0.0001061
0.0001004
9.44e-05
8.82e-05
8.17e-05
7.51e-05
6.82e-05
6.11e-05
5.38e-05
4.63e-05
3.85e-05
3.07e-05
2.25e-05
1.44e-05
5.9e-06
-2.6e-06
-1.13e-05
-2.01e-05
-2.91e-05
-3.8e-05
-4.72e-05
-5.64e-05
-6.56e-05
-7.5e-05
-8.43e-05
-9.37e-05
-0.0001031
-0.0001125
-0.0001218
-0.0001313
-0.0001405
-0.0001498
-0.000159
-0.0001681
-0.000177
-0.000186
-0.0001947
-0.0002033
-0.0002117
-0.00022
-0.0002281
-0.000236
-0.0002436
-0.000251
-0.0002582
-0.0002651
-0.0002717
-0.0002781
-0.0002841
-0.0002898
-0.0002952
-0.0003002
9.38e-05
0.0003092
0.0003132
0.0003168
0.0003199
0.0003227
0.0003249
0.0003269
0.0003283
0.0003294
0.0003299
0.00033
0.0003296
0.0003287
0.0003274
0.0003257
0.0003233
0.0003205
0.0003172
0.0003135
0.0003091
0.0003044
0.0002991
0.0002934
0.000287
0.0002803
0.0002731
0.0002653
0.0002571
0.0002484
0.0002392
0.0002296
0.0002195
0.000209
0.000198
0.0001866
0.0001748
0.0001626
0.00015
0.000137
0.0001236
0.0001099
9.59e-05
8.15e-05
6.68e-05
5.19e-05
3.66e-05
2.12e-05
5.4e-06
-1.05e-05
-2.66e-05
-4.29e-05
-5.94e-05
-7.6e-05
-9.26e-05
-0.0001094
-0.0001263
-0.0001432
-0.00016
-0.0001769
-0.0001938
-0.0002106
-0.0002273
-0.000244
-0.0002604
-0.0002768
-0.0002929
-0.0003089
-0.0003246
-0.0003401
-0.0003553
-0.0003701
-0.0003847
-0.000399
-0.0004127
-0.0004262
-0.0004391
-0.0004517
-0.0004638
-0.0004754
-0.0004864
-0.000497
-0.0005069
-0.0005163
-0.0005251
-0.0005332
-0.0005407
0.0002156
0.0005538
0.0005593
0.0005641
0.0005681
0.0005715
0.000574
0.0005759
0.0005769
0.0005771
0.0005766
0.0005752
0.0005731
0.0005702
0.0005663
0.0005617
0.0005563
0.0005499
0.0005429
0.0005349
0.0005262
0.0005165
0.0005061
0.0004949
0.0004828
0.00047
0.0004563
0.0004419
0.0004266
0.0004107
0.000394
0.0003765
0.0003583
0.0003395
0.0003199
0.0002997
0.0002788
0.0002574
0.0002353
0.0002126
0.0001894
0.0001658
0.0001415
0.0001169
9.17e-05
6.62e-05
4.04e-05
1.41e-05
-1.25e-05
-3.92e-05
-6.64e-05
-9.36e-05
-0.0001211
-0.0001486
-0.0001764
-0.0002041
-0.0002319
-0.0002597
-0.0002873
-0.000315
-0.0003426
-0.0003698
-0.000397
-0.0004238
-0.0004505
-0.0004767
-0.0005026
-0.0005281
-0.0005532
-0.0005777
-0.0006018
-0.0006252
-0.0006481
-0.0006704
-0.0006919
-0.0007128
-0.0007329
-0.0007523
-0.0007707
-0.0007884
-0.0008051
-0.000821
-0.0008359
-0.0008498
-0.0008627
-0.0008746
-0.0008854
0.0004299
0.0009037
0.0009112
0.0009175
0.0009226
0.0009265
0.0009292
0.0009307
0.0009309
0.0009299
0.0009276
0.000924
0.000919
0.0009129
0.0009054
0.0008966
0.0008865
0.0008751
0.0008624
0.0008484
0.000833
0.0008165
0.0007986
0.0007794
0.0007591
0.0007374
0.0007146
0.0006906
0.0006653
0.0006389
0.0006114
0.0005828
0.0005531
0.0005224
0.0004905
0.0004578
0.0004241
0.0003895
0.000354
0.0003176
0.0002805
0.0002427
0.000204
0.0001648
0.0001249
8.45e-05
4.35e-05
2.1e-06
-3.98e-05
-8.19e-05
-0.0001245
-0.0001672
-0.0002103
-0.0002533
-0.0002965
-0.0003398
-0.000383
-0.0004261
-0.0004691
-0.0005118
-0.0005543
-0.0005965
-0.0006383
-0.0006796
-0.0007204
-0.0007607
-0.0008003
-0.0008392
-0.0008775
-0.0009148
-0.0009514
-0.0009869
-0.0010216
-0.0010551
-0.0010877
-0.0011189
-0.0011492
-0.001178
-0.0012056
-0.0012319
-0.0012567
-0.0012801
-0.001302
-0.0013224
-0.0013411
-0.0013583
-0.0013739
0.0007866
0.0013997
0.00141
0.0014186
0.0014252
0.0014302
0.0014331
0.0014341
0.0014334
0.0014306
0.0014259
0.0014192
0.0014106
0.0013999
0.0013874
0.0013728
0.0013563
0.0013377
0.0013173
0.0012947
0.0012704
0.001244
0.0012158
0.0011855
0.0011535
0.0011196
0.0010839
0.0010464
0.0010071
0.0009661
0.0009234
0.000879
0.0008331
0.0007856
0.0007367
0.0006861
0.0006344
0.0005811
0.0005266
0.000471
0.000414
0.0003561
0.0002971
0.0002372
0.0001763
0.0001146
5.23e-05
-1.09e-05
-7.45e-05
-0.0001386
-0.0002033
-0.0002681
-0.0003334
-0.0003988
-0.0004642
-0.0005297
-0.000595
-0.0006603
-0.0007253
-0.0007899
-0.000854
-0.0009177
-0.0009807
-0.001043
-0.0011046
-0.0011652
-0.0012248
-0.0012835
-0.0013409
-0.0013972
-0.001452
-0.0015055
-0.0015575
-0.0016078
-0.0016567
-0.0017036
-0.0017488
-0.0017921
-0.0018335
-0.0018727
-0.0019098
-0.0019448
-0.0019776
-0.0020079
-0.0020359
-0.0020616
-0.0020846
0.0013757
0.0021231
0.0021384
0.0021509
0.0021608
0.0021679
0.0021721
0.0021735
0.0021721
0.0021677
0.0021604
0.0021502
0.0021371
0.0021209
0.0021018
0.0020797
0.0020547
0.0020267
0.0019956
0.0019618
0.0019249
0.0018851
0.0018425
0.001797
0.0017486
0.0016976
0.0016437
0.0015871
0.0015279
0.0014661
0.0014017
0.001335
0.0012656
0.0011941
0.0011201
0.0010441
0.0009658
0.0008856
0.0008034
0.0007193
0.0006334
0.0005458
0.0004568
0.0003661
0.0002742
0.0001809
8.65e-05
-9e-06
-0.0001054
-0.0002025
-0.0003005
-0.0003989
-0.0004979
-0.0005971
-0.0006965
-0.0007961
-0.0008955
-0.0009949
-0.0010937
-0.0011923
-0.0012902
-0.0013874
-0.0014837
-0.001579
-0.0016734
-0.0017663
-0.0018578
-0.001948
-0.0020364
-0.002123
-0.0022077
-0.0022904
-0.0023709
-0.002449
-0.0025249
-0.0025981
-0.0026686
-0.0027364
-0.0028013
-0.0028632
-0.0029219
-0.0029773
-0.0030296
-0.0030783
-0.0031234
-0.003165
-0.0032028
0.0023961
0.003267
0.0032931
0.0033153
0.0033333
0.003347
0.0033567
0.0033619
0.0033628
0.0033594
0.0033515
0.0033391
0.0033222
0.0033009
0.0032748
0.0032444
0.0032092
0.0031696
0.0031254
0.0030765
0.0030232
0.0029654
0.0029029
0.0028361
0.0027649
0.0026891
0.0026092
0.0025248
0.0024364
0.0023437
0.0022469
0.0021462
0.0020415
0.001933
0.0018208
0.001705
0.0015856
0.0014628
0.0013367
0.0012075
0.0010752
0.0009401
0.0008021
0.0006616
0.0005185
0.0003732
0.0002256
7.62e-05
-7.52e-05
-0.0002283
-0.0003827
-0.0005385
-0.0006955
-0.0008534
-0.001012
-0.0011713
-0.0013309
-0.0014906
-0.0016505
-0.00181
-0.0019692
-0.0021276
-0.0022854
-0.0024421
-0.0025975
-0.0027515
-0.0029039
-0.0030543
-0.0032027
-0.0033489
-0.0034926
-0.0036334
-0.0037716
-0.0039065
-0.0040381
-0.0041663
-0.0042907
-0.0044113
-0.0045276
-0.0046398
-0.0047474
-0.0048503
-0.0049485
-0.0050415
-0.0051293
-0.0052118
-0.0052888
0.0044333
0.0054252
0.0054845
0.0055376
0.0055844
0.0056247
0.0056585
0.0056854
0.0057057
0.0057188
0.005725
0.005724
0.0057158
0.0057002
0.0056772
0.0056466
0.0056087
0.0055629
0.0055097
0.0054486
0.0053798
0.0053033
0.005219
0.0051268
0.005027
0.0049193
0.0048038
0.0046807
0.0045497
0.0044111
0.0042649
0.0041112
0.0039498
0.0037811
0.0036051
0.0034218
0.0032312
0.0030338
0.0028293
0.0026181
0.0024002
0.0021757
0.0019448
0.0017078
0.0014647
0.0012156
0.0009609
0.0007007
0.000435
0.0001644
-0.0001114
-0.0003916
-0.0006766
-0.0009656
-0.0012588
-0.0015557
-0.0018561
-0.00216
-0.0024667
-0.0027763
-0.0030884
-0.0034027
-0.003719
-0.004037
-0.0043564
-0.004677
-0.0049982
-0.0053202
-0.0056423
-0.0059644
-0.0062861
-0.0066072
-0.0069273
-0.0072463
-0.0075635
-0.007879
-0.0081923
-0.0085031
-0.0088112
-0.0091161
-0.0094177
-0.0097156
-0.0100095
-0.0102991
-0.0105841
-0.0108644
-0.0111393
0.0104279
0.0116728
0.0119305
0.0121821
0.0124271
0.0126652
0.0128963
0.0131199
0.0133361
0.0135444
0.0137446
0.0139365
0.0141198
0.0142945
0.0144601
0.0146165
0.0147636
0.0149012
0.0150289
0.0151468
0.0152547
0.0153522
0.0154393
0.0155161
0.015582
0.0156373
0.0156817
0.015715
0.0157374
0.0157486
0.0157485
0.0157372
0.0157145
0.0156804
0.0156351
0.0155781
0.0155099
0.0154301
0.015339
0.0152364
0.0151226
0.0149973
0.0148608
0.0147131
0.0145543
0.0143844
0.0142035
0.014012
0.0138095
0.0135966
0.0133731
0.0131393
0.0128954
0.0126415
0.0123777
0.0121044
0.0118215
0.0115295
0.0112283
0.0109185
0.0105999
0.0102731
0.0099382
0.0095954
0.009245
0.0088873
0.0085225
0.0081511
0.007773
0.0073889
0.0069988
0.0066031
0.0062022
0.0057963
0.0053858
0.004971
0.0045522
0.0041297
0.003704
0.0032752
0.0028439
0.0024103
0.0019746
0.0015375
0.0010991
0.0006598
0.00022
-0.00022
-0.0006598
-0.0010991
-0.0015375
-0.0019746
-0.0024103
-0.0028439
-0.0032752
-0.003704
-0.0041297
-0.0045522
-0.004971
-0.0053858
-0.0057963
-0.0062022
-0.0066031
-0.0069988
-0.0073889
-0.007773
-0.0081511
-0.0085225
-0.0088873
-0.009245
-0.0095954
-0.0099382
-0.0102731
-0.0105999
-0.0109185
-0.0112283
-0.0115295
-0.0118215
-0.0121044
-0.0123777
-0.0126415
-0.0128954
-0.0131393
-0.0133731
-0.0135966
-0.0138095
-0.014012
-0.0142035
-0.0143844
-0.0145543
-0.0147131
-0.0148608
-0.0149973
-0.0151226
-0.0152364
-0.015339
-0.0154301
-0.0155099
-0.0155781
-0.0156351
-0.0156804
-0.0157145
-0.0157372
-0.0157485
-0.0157486
-0.0157374
-0.015715
-0.0156817
-0.0156373
-0.015582
-0.0155161
-0.0154393
-0.0153522
-0.0152547
-0.0151468
-0.0150289
-0.0149012
-0.0147636
-0.0146165
-0.0144601
-0.0142945
-0.0141198
-0.0139365
-0.0137446
-0.0135444
-0.0133361
-0.0131199
-0.0128963
-0.0126652
-0.0124271
-0.0121821
-0.0119305
-0.0116728
-0.0104279
0.0111393
0.0108644
0.0105841
0.0102991
0.0100095
0.0097156
0.0094177
0.0091161
0.0088112
0.0085031
0.0081923
0.007879
0.0075635
0.0072463
0.0069273
0.0066072
0.0062861
0.0059644
0.0056423
0.0053202
0.0049982
0.004677
0.0043564
0.004037
0.003719
0.0034027
0.0030884
0.0027763
0.0024667
0.00216
0.0018561
0.0015557
0.0012588
0.0009656
0.0006766
0.0003916
0.0001114
-0.0001644
-0.000435
-0.0007007
-0.0009609
-0.0012156
-0.0014647
-0.0017078
-0.0019448
-0.0021757
-0.0024002
-0.0026181
-0.0028293
-0.0030338
-0.0032312
-0.0034218
-0.0036051
-0.0037811
-0.0039498
-0.0041112
-0.0042649
-0.0044111
-0.0045497
-0.0046807
-0.0048038
-0.0049193
-0.005027
-0.0051268
-0.005219
-0.0053033
-0.0053798
-0.0054486
-0.0055097
-0.0055629
-0.0056087
-0.0056466
-0.0056772
-0.0057002
-0.0057158
-0.005724
-0.005725
-0.0057188
-0.0057057
-0.0056854
-0.0056585
-0.0056247
-0.0055844
-0.0055376
-0.0054845
-0.0054252
-0.0044333
0.0052888
0.0052118
0.0051293
0.0050415
0.0049485
0.0048503
0.0047474
0.0046398
0.0045276
0.0044113
0.0042907
0.0041663
0.0040381
0.0039065
0.0037716
0.0036334
0.0034926
0.0033489
0.0032027
0.0030543
0.0029039
0.0027515
0.0025975
0.0024421
0.0022854
0.0021276
0.0019692
0.00181
0.0016505
0.0014906
0.0013309
0.0011713
0.001012
0.0008534
0.0006955
0.0005385
0.0003827
0.0002283
7.52e-05
-7.62e-05
-0.0002256
-0.0003732
-0.0005185
-0.0006616
-0.0008021
-0.0009401
-0.0010752
-0.0012075
-0.0013367
-0.0014628
-0.0015856
-0.001705
-0.0018208
-0.001933
-0.0020415
-0.0021462
-0.0022469
-0.0023437
-0.0024364
-0.0025248
-0.0026092
-0.0026891
-0.0027649
-0.0028361
-0.0029029
-0.0029654
-0.0030232
-0.0030765
-0.0031254
-0.0031696
-0.0032092
-0.0032444
-0.0032748
-0.0033009
-0.0033222
-0.0033391
-0.0033515
-0.0033594
-0.0033628
-0.0033619
-0.0033567
-0.003347
-0.0033333
-0.0033153
-0.0032931
-0.003267
-0.0023961
0.0032028
0.003165
0.0031234
0.0030783
0.0030296
0.0029773
0.0029219
