# Pulseq sequence file
# Created by PyPulseq

[VERSION]
major 1
minor 3
revision 1

[DEFINITIONS]
Name 20230524_3Dream_b0corr_2mm_N9_acc3_1shot 
FOV 0.208 0.208 0.208 

# Format of blocks:
#  #  D RF  GX  GY  GZ ADC EXT
[BLOCKS]
    1  1  0   0   0   0  1  0
    2  1  0   0   0   0  1  0
    3  1  0   0   0   0  1  0
    4  1  0   0   0   0  1  0
    5  1  0   0   0   0  1  0
    6  1  0   0   0   0  1  0
    7  1  0   0   0   0  1  0
    8  1  0   0   0   0  1  0
    9  1  0   0   0   0  1  0
   10  1  0   0   0   0  1  0
   11  1  0   0   0   0  1  0
   12  1  0   0   0   0  1  0
   13  1  0   0   0   0  1  0
   14  1  0   0   0   0  1  0
   15  1  0   0   0   0  1  0
   16  1  0   0   0   0  1  0
   17  2  1   0   0   1  0  0
   18  0  0   2   3   4  0  0
   19  3  0   0   0   0  0  0
   20  0  0   5   0   0  0  0
   21  0  0   6   0   0  0  0
   22  4  0   0   0   0  0  0
   23  0  0   5   0   0  0  0
   24  0  0   0   7   8  0  0
   25  2  2   0   0   1  0  0
   26  0  0   2   3   4  0  0
   27  3  0   0   0   0  0  0
   28  0  0   5   0   0  0  0
   29  0  0   6   0   0  0  0
   30  4  0   0   0   0  0  0
   31  0  0   5   0   0  0  0
   32  0  0   0   7   8  0  0
   33  2  3   0   0   1  0  0
   34  0  0   2   3   4  0  0
   35  3  0   0   0   0  0  0
   36  0  0   5   0   0  0  0
   37  0  0   6   0   0  0  0
   38  4  0   0   0   0  0  0
   39  0  0   5   0   0  0  0
   40  0  0   0   7   8  0  0
   41  2  4   0   0   1  0  0
   42  0  0   2   3   4  0  0
   43  3  0   0   0   0  0  0
   44  0  0   5   0   0  0  0
   45  0  0   6   0   0  0  0
   46  4  0   0   0   0  0  0
   47  0  0   5   0   0  0  0
   48  0  0   0   7   8  0  0
   49  2  5   0   0   1  0  0
   50  0  0   2   3   4  0  0
   51  3  0   0   0   0  0  0
   52  0  0   5   0   0  0  0
   53  0  0   6   0   0  0  0
   54  4  0   0   0   0  0  0
   55  0  0   5   0   0  0  0
   56  0  0   0   7   8  0  0
   57  2  6   0   0   1  0  0
   58  0  0   2   3   4  0  0
   59  3  0   0   0   0  0  0
   60  0  0   5   0   0  0  0
   61  0  0   6   0   0  0  0
   62  4  0   0   0   0  0  0
   63  0  0   5   0   0  0  0
   64  0  0   0   7   8  0  0
   65  2  7   0   0   1  0  0
   66  0  0   2   3   4  0  0
   67  3  0   0   0   0  0  0
   68  0  0   5   0   0  0  0
   69  0  0   6   0   0  0  0
   70  4  0   0   0   0  0  0
   71  0  0   5   0   0  0  0
   72  0  0   0   7   8  0  0
   73  2  8   0   0   1  0  0
   74  0  0   2   3   4  0  0
   75  3  0   0   0   0  0  0
   76  0  0   5   0   0  0  0
   77  0  0   6   0   0  0  0
   78  4  0   0   0   0  0  0
   79  0  0   5   0   0  0  0
   80  0  0   0   7   8  0  0
   81  2  9   0   0   1  0  0
   82  0  0   2   3   4  0  0
   83  3  0   0   0   0  0  0
   84  0  0   5   0   0  0  0
   85  0  0   6   0   0  0  0
   86  4  0   0   0   0  0  0
   87  0  0   5   0   0  0  0
   88  0  0   0   7   8  0  0
   89  2 10   0   0   1  0  0
   90  0  0   2   3   4  0  0
   91  3  0   0   0   0  0  0
   92  0  0   5   0   0  0  0
   93  0  0   6   0   0  0  0
   94  4  0   0   0   0  0  0
   95  0  0   5   0   0  0  0
   96  0  0   0   7   8  0  0
   97  2  6   0   0   1  0  0
   98  0  0   2   3   4  0  0
   99  3  0   0   0   0  0  0
  100  0  0   5   0   0  2  0
  101  0  0   6   0   0  0  0
  102  4  0   0   0   0  0  0
  103  0  0   5   0   0  2  0
  104  0  0   0   7   8  0  0
  105  2 11   0   0   1  0  0
  106  0  0   2   3   9  0  0
  107  3  0   0   0   0  0  0
  108  0  0   5   0   0  3  0
  109  0  0   6   0   0  0  0
  110  4  0   0   0   0  0  0
  111  0  0   5   0   0  3  0
  112  0  0   0   7  10  0  0
  113  2 12   0   0   1  0  0
  114  0  0   2  11   9  0  0
  115  3  0   0   0   0  0  0
  116  0  0   5   0   0  4  0
  117  0  0   6   0   0  0  0
  118  4  0   0   0   0  0  0
  119  0  0   5   0   0  4  0
  120  0  0   0  12  10  0  0
  121  2 13   0   0   1  0  0
  122  0  0   2  11   4  0  0
  123  3  0   0   0   0  0  0
  124  0  0   5   0   0  5  0
  125  0  0   6   0   0  0  0
  126  4  0   0   0   0  0  0
  127  0  0   5   0   0  5  0
  128  0  0   0  12   8  0  0
  129  2 14   0   0   1  0  0
  130  0  0   2  11  13  0  0
  131  3  0   0   0   0  0  0
  132  0  0   5   0   0  6  0
  133  0  0   6   0   0  0  0
  134  4  0   0   0   0  0  0
  135  0  0   5   0   0  6  0
  136  0  0   0  12  14  0  0
  137  2  1   0   0   1  0  0
  138  0  0   2   3  13  0  0
  139  3  0   0   0   0  0  0
  140  0  0   5   0   0  7  0
  141  0  0   6   0   0  0  0
  142  4  0   0   0   0  0  0
  143  0  0   5   0   0  7  0
  144  0  0   0   7  14  0  0
  145  2 15   0   0   1  0  0
  146  0  0   2  15  13  0  0
  147  3  0   0   0   0  0  0
  148  0  0   5   0   0  8  0
  149  0  0   6   0   0  0  0
  150  4  0   0   0   0  0  0
  151  0  0   5   0   0  8  0
  152  0  0   0  16  14  0  0
  153  2 16   0   0   1  0  0
  154  0  0   2  15   4  0  0
  155  3  0   0   0   0  0  0
  156  0  0   5   0   0  9  0
  157  0  0   6   0   0  0  0
  158  4  0   0   0   0  0  0
  159  0  0   5   0   0  9  0
  160  0  0   0  16   8  0  0
  161  2 13   0   0   1  0  0
  162  0  0   2  15   9  0  0
  163  3  0   0   0   0  0  0
  164  0  0   5   0   0  5  0
  165  0  0   6   0   0  0  0
  166  4  0   0   0   0  0  0
  167  0  0   5   0   0  5  0
  168  0  0   0  16  10  0  0
  169  2 17   0   0   1  0  0
  170  0  0   2  15  17  0  0
  171  3  0   0   0   0  0  0
  172  0  0   5   0   0 10  0
  173  0  0   6   0   0  0  0
  174  4  0   0   0   0  0  0
  175  0  0   5   0   0 10  0
  176  0  0   0  16  18  0  0
  177  2  5   0   0   1  0  0
  178  0  0   2   3  17  0  0
  179  3  0   0   0   0  0  0
  180  0  0   5   0   0 11  0
  181  0  0   6   0   0  0  0
  182  4  0   0   0   0  0  0
  183  0  0   5   0   0 11  0
  184  0  0   0   7  18  0  0
  185  2 18   0   0   1  0  0
  186  0  0   2  11  17  0  0
  187  3  0   0   0   0  0  0
  188  0  0   5   0   0 12  0
  189  0  0   6   0   0  0  0
  190  4  0   0   0   0  0  0
  191  0  0   5   0   0 12  0
  192  0  0   0  12  18  0  0
  193  2 19   0   0   1  0  0
  194  0  0   2  19  17  0  0
  195  3  0   0   0   0  0  0
  196  0  0   5   0   0 13  0
  197  0  0   6   0   0  0  0
  198  4  0   0   0   0  0  0
  199  0  0   5   0   0 13  0
  200  0  0   0  20  18  0  0
  201  2  9   0   0   1  0  0
  202  0  0   2  19   9  0  0
  203  3  0   0   0   0  0  0
  204  0  0   5   0   0 14  0
  205  0  0   6   0   0  0  0
  206  4  0   0   0   0  0  0
  207  0  0   5   0   0 14  0
  208  0  0   0  20  10  0  0
  209  2 20   0   0   1  0  0
  210  0  0   2  19   4  0  0
  211  3  0   0   0   0  0  0
  212  0  0   5   0   0 15  0
  213  0  0   6   0   0  0  0
  214  4  0   0   0   0  0  0
  215  0  0   5   0   0 15  0
  216  0  0   0  20   8  0  0
  217  2 10   0   0   1  0  0
  218  0  0   2  19  13  0  0
  219  3  0   0   0   0  0  0
  220  0  0   5   0   0 16  0
  221  0  0   6   0   0  0  0
  222  4  0   0   0   0  0  0
  223  0  0   5   0   0 16  0
  224  0  0   0  20  14  0  0
  225  2 18   0   0   1  0  0
  226  0  0   2  19  21  0  0
  227  3  0   0   0   0  0  0
  228  0  0   5   0   0 12  0
  229  0  0   6   0   0  0  0
  230  4  0   0   0   0  0  0
  231  0  0   5   0   0 12  0
  232  0  0   0  20  22  0  0
  233  2 21   0   0   1  0  0
  234  0  0   2  11  21  0  0
  235  3  0   0   0   0  0  0
  236  0  0   5   0   0 17  0
  237  0  0   6   0   0  0  0
  238  4  0   0   0   0  0  0
  239  0  0   5   0   0 17  0
  240  0  0   0  12  22  0  0
  241  2  4   0   0   1  0  0
  242  0  0   2   3  21  0  0
  243  3  0   0   0   0  0  0
  244  0  0   5   0   0 18  0
  245  0  0   6   0   0  0  0
  246  4  0   0   0   0  0  0
  247  0  0   5   0   0 18  0
  248  0  0   0   7  22  0  0
  249  2 22   0   0   1  0  0
  250  0  0   2  15  21  0  0
  251  3  0   0   0   0  0  0
  252  0  0   5   0   0 19  0
  253  0  0   6   0   0  0  0
  254  4  0   0   0   0  0  0
  255  0  0   5   0   0 19  0
  256  0  0   0  16  22  0  0
  257  2 14   0   0   1  0  0
  258  0  0   2  23  21  0  0
  259  3  0   0   0   0  0  0
  260  0  0   5   0   0  6  0
  261  0  0   6   0   0  0  0
  262  4  0   0   0   0  0  0
  263  0  0   5   0   0  6  0
  264  0  0   0  24  22  0  0
  265  2 15   0   0   1  0  0
  266  0  0   2  23  13  0  0
  267  3  0   0   0   0  0  0
  268  0  0   5   0   0  8  0
  269  0  0   6   0   0  0  0
  270  4  0   0   0   0  0  0
  271  0  0   5   0   0  8  0
  272  0  0   0  24  14  0  0
  273  2 23   0   0   1  0  0
  274  0  0   2  23   4  0  0
  275  3  0   0   0   0  0  0
  276  0  0   5   0   0 20  0
  277  0  0   6   0   0  0  0
  278  4  0   0   0   0  0  0
  279  0  0   5   0   0 20  0
  280  0  0   0  24   8  0  0
  281  2  2   0   0   1  0  0
  282  0  0   2  23   9  0  0
  283  3  0   0   0   0  0  0
  284  0  0   5   0   0 21  0
  285  0  0   6   0   0  0  0
  286  4  0   0   0   0  0  0
  287  0  0   5   0   0 21  0
  288  0  0   0  24  10  0  0
  289  2 22   0   0   1  0  0
  290  0  0   2  23  17  0  0
  291  3  0   0   0   0  0  0
  292  0  0   5   0   0 19  0
  293  0  0   6   0   0  0  0
  294  4  0   0   0   0  0  0
  295  0  0   5   0   0 19  0
  296  0  0   0  24  18  0  0
  297  2 17   0   0   1  0  0
  298  0  0   2  23  25  0  0
  299  3  0   0   0   0  0  0
  300  0  0   5   0   0 10  0
  301  0  0   6   0   0  0  0
  302  4  0   0   0   0  0  0
  303  0  0   5   0   0 10  0
  304  0  0   0  24  26  0  0
  305  2 11   0   0   1  0  0
  306  0  0   2  15  25  0  0
  307  3  0   0   0   0  0  0
  308  0  0   5   0   0  3  0
  309  0  0   6   0   0  0  0
  310  4  0   0   0   0  0  0
  311  0  0   5   0   0  3  0
  312  0  0   0  16  26  0  0
  313  2 24   0   0   1  0  0
  314  0  0   2   3  25  0  0
  315  3  0   0   0   0  0  0
  316  0  0   5   0   0 22  0
  317  0  0   6   0   0  0  0
  318  4  0   0   0   0  0  0
  319  0  0   5   0   0 22  0
  320  0  0   0   7  26  0  0
  321  2  7   0   0   1  0  0
  322  0  0   2  11  25  0  0
  323  3  0   0   0   0  0  0
  324  0  0   5   0   0 23  0
  325  0  0   6   0   0  0  0
[RF]
1      159.723 1 2 100 0 0
2      159.723 1 2 100 0 2.04204
3      159.723 1 2 100 0 6.12611
4      159.723 1 2 100 0 5.96903
5      159.723 1 2 100 0 1.5708
6      159.723 1 2 100 0 5.49779
7      159.723 1 2 100 0 5.18363
8      159.723 1 2 100 0 0.628319
9      159.723 1 2 100 0 4.39823
10      159.723 1 2 100 0 3.92699
11      159.723 1 2 100 0 2.82743
12      159.723 1 2 100 0 2.19911
13      159.723 1 2 100 0 3.61283
14      159.723 1 2 100 0 0.785398
15      159.723 1 2 100 0 1.25664
16      159.723 1 2 100 0 4.55531
17      159.723 1 2 100 0 4.71239
18      159.723 1 2 100 0 0.471239
19      159.723 1 2 100 0 1.41372
20      159.723 1 2 100 0 3.14159
21      159.723 1 2 100 0 5.34071
22      159.723 1 2 100 0 2.35619
23      159.723 1 2 100 0 3.76991
24      159.723 1 2 100 0 2.98451
25      308.076 3 4 100 -981 0
26      347.222 5 6 100 0 0
27       209.11 7 8 100 0 0

# Format of arbitrary gradients:
# id amplitude shape_id delay
# ..      Hz/m     ....    us
[GRADIENTS]
211  1.08307e+06 9 20
212  1.10823e+06 10 20
216  1.11659e+06 11 20
217  1.09161e+06 12 20
220  1.10004e+06 13 20
221  1.07443e+06 14 20
225  1.08884e+06 15 20
226   1.1139e+06 16 20
230  1.07842e+06 17 20
231  1.09715e+06 18 20
234  1.10539e+06 19 20
235  1.08037e+06 20 20
239  1.07744e+06 21 20
240  1.10278e+06 22 20
244  1.11112e+06 23 20
245  1.08587e+06 24 20
248  1.09421e+06 25 20
249  1.10936e+06 26 20

# Format of trapezoid gradients:
# id amplitude rise flat fall delay
# ..      Hz/m   us   us   us    us
[TRAP]
 1      55288.5  10 2000  10  90
 2      -814556 160    0 160   0
 3            0  10  280  10   0
 4      -173640  40  280  40   0
 5       289620  60  840  60   0
 6 -1.18481e+06 220    0 220   0
 7           -0  10  910  10   0
 8  1.43513e+06 260  410 260   0
 9      -188664  40  280  40   0
10  1.46416e+06 270  390 270   0
11     -16578.2  10  280  10   0
12      5225.75  10  910  10   0
13      -153810  30  300  30   0
14  1.42796e+06 260  410 260   0
15      16578.2  10  280  10   0
16     -5225.75  10  910  10   0
17      -203688  40  280  40   0
18  1.47145e+06 270  390 270   0
19     -33156.5  10  280  10   0
20      10451.5  10  910  10   0
21      -139241  30  300  30   0
22  1.42078e+06 260  410 260   0
23      33156.5  10  280  10   0
24     -10451.5  10  910  10   0
25      -218712  40  280  40   0
26  1.47873e+06 270  390 270   0
27     -49734.7  10  280  10   0
28      15677.3  10  910  10   0
29      -124672  30  300  30   0
30  1.41361e+06 260  410 260   0
31      49734.7  10  280  10   0
32     -15677.3  10  910  10   0
33      -241276  50  260  50   0
34  1.48601e+06 270  390 270   0
35     -68681.3  20  260  20   0
36        20903  10  910  10   0
37      -106865  20  320  20   0
38  1.40643e+06 260  410 260   0
39      68681.3  20  260  20   0
40       -20903  10  910  10   0
41      -256785  50  260  50   0
42   1.4933e+06 270  390 270   0
43     -85851.6  20  260  20   0
44      26128.8  10  910  10   0
45     -92724.8  20  320  20   0
46  1.37868e+06 250  430 250   0
47      85851.6  20  260  20   0
48     -26128.8  10  910  10   0
49      -272294  50  260  50   0
50  1.52367e+06 280  370 280   0
51      -103022  20  260  20   0
52      31354.5  10  910  10   0
53     -78584.6  20  320  20   0
54  1.37161e+06 250  430 250   0
55       103022  20  260  20   0
56     -31354.5  10  910  10   0
57      -297396  60  240  60   0
58  1.53107e+06 280  370 280   0
59      -124644  30  240  30   0
60      36580.3  10  910  10   0
61     -64444.3  20  320  20   0
62  1.36454e+06 250  430 250   0
63       124644  30  240  30   0
64     -36580.3  10  910  10   0
65      -313421  60  240  60   0
66  1.53846e+06 280  370 280   0
67      -142450  30  240  30   0
68        41806  10  910  10   0
69     -48866.8  10  340  10   0
70  1.35747e+06 250  430 250   0
71       142450  30  240  30   0
72       -41806  10  910  10   0
73      -329447  60  240  60   0
74  1.54586e+06 280  370 280   0
75      -160256  30  240  30   0
76      47031.8  10  910  10   0
77     -35130.5  10  340  10   0
78   1.3504e+06 250  430 250   0
79       160256  30  240  30   0
80     -47031.8  10  910  10   0
81      -357386  70  220  70   0
82  1.57752e+06 290  350 290   0
83      -184911  40  220  40   0
84      52257.5  10  910  10   0
85     -21394.2  10  340  10   0
86  1.32386e+06 240  450 240   0
87       184911  40  220  40   0
88     -52257.5  10  910  10   0
89      -373964  70  220  70   0
90  1.58504e+06 290  350 290   0
91      -203402  40  220  40   0
92        58115  20  890  20   0
93     -7657.97  10  340  10   0
94  1.31689e+06 240  450 240   0
95       203402  40  220  40   0
96       -58115  20  890  20   0
97      -404490  80  200  80   0
98  1.59255e+06 290  350 290   0
99      -230769  50  200  50   0
100      63398.1  20  890  20   0
101       6078.3  10  340  10   0
102  1.30992e+06 240  450 240   0
103       230769  50  200  50   0
104     -63398.1  20  890  20   0
105      -421660  80  200  80   0
106  1.60006e+06 290  350 290   0
107      -250000  50  200  50   0
108      68681.3  20  890  20   0
109      19814.6  10  340  10   0
110  1.30295e+06 240  450 240   0
111       250000  50  200  50   0
112     -68681.3  20  890  20   0
113      -438831  80  200  80   0
114  1.63309e+06 300  330 300   0
115      -269231  50  200  50   0
116      73964.5  20  890  20   0
117      33550.8  10  340  10   0
118  1.29599e+06 240  450 240   0
119       269231  50  200  50   0
120     -73964.5  20  890  20   0
121      -472890  90  180  90   0
122  1.64072e+06 300  330 300   0
123      -300481  60  180  60   0
124      79247.7  20  890  20   0
125      47287.1  10  340  10   0
126   1.2706e+06 230  470 230   0
127       300481  60  180  60   0
128     -79247.7  20  890  20   0
129      -490696  90  180  90   0
130  1.64835e+06 300  330 300   0
131      -320513  60  180  60   0
132      84530.9  20  890  20   0
133      62818.2  20  320  20   0
134  1.26374e+06 230  470 230   0
135       320513  60  180  60   0
136     -84530.9  20  890  20   0
137      -528060 100  160 100   0
138  1.65598e+06 300  330 300   0
139      -355351  70  160  70   0
140        89814  20  890  20   0
141      76958.4  20  320  20   0
142  1.25687e+06 230  470 230   0
143       355351  70  160  70   0
144       -89814  20  890  20   0
145      -546551 100  160 100   0
146  1.69045e+06 310  310 310   0
147      -376254  70  160  70   0
148      95097.2  20  890  20   0
149      91098.7  20  320  20   0
150     1.25e+06 230  470 230   0
151       376254  70  160  70   0
152     -95097.2  20  890  20   0
153      -587644 110  140 110   0
154   1.6982e+06 310  310 310   0
155      -415210  80  140  80   0
156       100380  20  890  20   0
157       105239  20  320  20   0
158  1.24313e+06 230  470 230   0
159       415210  80  140  80   0
160      -100380  20  890  20   0
161      -606875 110  140 110   0
162  1.70596e+06 310  310 310   0
163      -437063  80  140  80   0
164       105664  20  890  20   0
165       122997  30  300  30   0
166  1.23626e+06 230  470 230   0
167       437063  80  140  80   0
168      -105664  20  890  20   0
169      -652194 120  120 120   0
170  1.71371e+06 310  310 310   0
171      -480769  90  120  90   0
172       112179  30  870  30   0
173       137566  30  300  30   0
174  1.21208e+06 220  490 220   0
175       480769  90  120  90   0
176      -112179  30  870  30   0
177      -701453 130  100 130   0
178  1.74968e+06 320  290 320   0
179      -528846 100  100 100   0
180       117521  30  870  30   0
181       152134  30  300  30   0
182  1.20531e+06 220  490 220   0
183       528846 100  100 100   0
184      -117521  30  870  30   0
185      -755190 140   80 140   0
186  1.75757e+06 320  290 320   0
187      -552885 100  100 100   0
188       122863  30  870  30   0
189       171913  40  280  40   0
190  1.19854e+06 220  490 220   0
191       552885 100  100 100   0
192      -122863  30  870  30   0
193      -814045 150   60 150   0
194  1.76545e+06 320  290 320   0
195      -607287 110   80 110   0
196       128205  30  870  30   0
197       186937  40  280  40   0
198  1.19177e+06 220  490 220   0
199       607287 110   80 110   0
200      -128205  30  870  30   0
201      -878786 160   40 160   0
202  1.80288e+06 330  270 330   0
203      -707014 130   40 130   0
204       133547  30  870  30   0
205  2.33373e+06 460  500 460   0
206  2.27273e+06 280   50 280   0
207  2.32558e+06 690  170 690   0
208       144231  20  200  20  80
209      -396635  80    0  80   0
210      -981879 120  660 120   0
213      -458315 120    0 120   0
214 -1.01473e+06 240    0 240   0
215  1.63934e+06 200 1020 200   0
218      -873376 210    0 210   0
219       846986 200    0 200   0
222       993362 240    0 240   0
223       529558 140    0 140   0
224      -994206 120  660 120   0
227       749862 180    0 180   0
228       913209 230    0 230   0
229  1.64723e+06 200 1020 200   0
232       673004 170    0 170   0
233      -964830 230    0 230   0
236      -997543 250    0 250   0
237       197881  60    0  60   0
238      -969551 120  660 120   0
241      -351255  90    0  90   0
242       990635 250    0 250   0
243  1.63146e+06 200 1020 200   0
246       959522 240    0 240   0
247      -602824 160    0 160   0
250      -903056 220    0 220   0
251      -795826 190    0 190   0
252 -1.00653e+06 120  660 120   0
253  1.65511e+06 200 1020 200   0
254      -957224 120  660 120   0
255  1.61038e+06 190 1040 190   0
256 -1.01886e+06 120  660 120   0
257  1.66299e+06 200 1020 200   0
258      -932936 110  680 110   0
259  1.60256e+06 190 1040 190   0
260 -1.04458e+06 130  640 130   0
261  1.67087e+06 200 1020 200   0
262      -920764 110  680 110   0
263  1.59475e+06 190 1040 190   0
264 -1.05707e+06 130  640 130   0
265  1.67875e+06 200 1020 200   0
266      -908593 110  680 110   0
267  1.58693e+06 190 1040 190   0
268 -1.06956e+06 130  640 130   0
269  1.68663e+06 200 1020 200   0
270      -896422 110  680 110   0
271  1.57911e+06 190 1040 190   0
272 -1.08204e+06 130  640 130   0
273  1.69451e+06 200 1020 200   0
274      -884250 110  680 110   0
275  1.57129e+06 190 1040 190   0
276 -1.09453e+06 130  640 130   0
277   1.7024e+06 200 1020 200   0
278      -872079 110  680 110   0
279  1.56348e+06 190 1040 190   0
280 -1.12158e+06 140  620 140   0
281  1.72441e+06 210 1000 210   0
282      -849159 100  700 100   0
283  1.55566e+06 190 1040 190   0
284 -1.13424e+06 140  620 140   0
285  1.73236e+06 210 1000 210   0
286      -837139 100  700 100   0
287  1.54784e+06 190 1040 190   0
288 -1.14689e+06 140  620 140   0
289  1.74031e+06 210 1000 210   0
290      -825120 100  700 100   0
291  1.52761e+06 180 1060 180   0
292 -1.15954e+06 140  620 140   0
293  1.74825e+06 210 1000 210   0
294      -813101 100  700 100   0
295  1.51985e+06 180 1060 180   0
296 -1.17219e+06 140  620 140   0
297   1.7562e+06 210 1000 210   0
298      -801082 100  700 100   0
299   1.5121e+06 180 1060 180   0
300 -1.18484e+06 140  620 140   0
301  1.76414e+06 210 1000 210   0
302      -789063 100  700 100   0
303  1.50434e+06 180 1060 180   0
304 -1.21346e+06 150  600 150   0
305  1.77209e+06 210 1000 210   0
306      -777043 100  700 100   0
307  1.49659e+06 180 1060 180   0
308 -1.22628e+06 150  600 150   0
309  1.78004e+06 210 1000 210   0
310      -755579  90  720  90   0
311  1.48883e+06 180 1060 180   0
312  -1.2391e+06 150  600 150   0
313  1.78798e+06 210 1000 210   0
314      -743708  90  720  90   0
315  1.48108e+06 180 1060 180   0
316 -1.25192e+06 150  600 150   0
317   1.8109e+06 220  980 220   0
318      -731838  90  720  90   0
319  1.47333e+06 180 1060 180   0
320 -1.26474e+06 150  600 150   0
321  1.81891e+06 220  980 220   0
322      -719967  90  720  90   0
323  1.46557e+06 180 1060 180   0
324 -1.29483e+06 160  580 160   0
325  1.82692e+06 220  980 220   0
326      -708096  90  720  90   0
327  1.44615e+06 170 1080 170   0
328 -1.30782e+06 160  580 160   0
329  1.83494e+06 220  980 220   0
330      -696225  90  720  90   0
331  1.43846e+06 170 1080 170   0
332 -1.32082e+06 160  580 160   0
333  1.84295e+06 220  980 220   0
334      -676008  80  740  80   0
335  1.43077e+06 170 1080 170   0
336 -1.33381e+06 160  580 160   0
337  1.85096e+06 220  980 220   0
338      -664282  80  740  80   0
339  1.42308e+06 170 1080 170   0
340  -1.3468e+06 160  580 160   0
341  1.85897e+06 220  980 220   0
342      -652556  80  740  80   0
343  1.41538e+06 170 1080 170   0
344  -1.3598e+06 160  580 160   0
345  1.86699e+06 220  980 220   0
346      -640830  80  740  80   0
347  1.40769e+06 170 1080 170   0
348  -1.3916e+06 170  560 170   0
349  1.89076e+06 230  960 230   0

# Format of ADC events:
# id num dwell delay freq phase
# ..  ..    ns    us   Hz   rad
[ADC]
1 256 2100 0 0 0
2 100 8300 65 0 5.49779
3 100 8300 65 0 2.82743
4 100 8300 65 0 2.19911
5 100 8300 65 0 3.61283
6 100 8300 65 0 0.785398
7 100 8300 65 0 0
8 100 8300 65 0 1.25664
9 100 8300 65 0 4.55531
10 100 8300 65 0 4.71239
11 100 8300 65 0 1.5708
12 100 8300 65 0 0.471239
13 100 8300 65 0 1.41372
14 100 8300 65 0 4.39823
15 100 8300 65 0 3.14159
16 100 8300 65 0 3.92699
17 100 8300 65 0 5.34071
18 100 8300 65 0 5.96903
19 100 8300 65 0 2.35619
20 100 8300 65 0 3.76991
21 100 8300 65 0 2.04204
22 100 8300 65 0 2.98451
23 100 8300 65 0 5.18363
24 100 8300 65 0 0.628319
25 100 8300 65 0 6.12611
26 2652 2100 0 0 0

# Format of delays:
# id delay (us)
[DELAYS]
1 1540
2 2130
3 190
4 640
5 5000000
6 2240
7 530
8 6260
9 10
10 330
11 20
12 5770
13 1010

# Sequence Shapes
[SHAPES]

shape_id 1
num_samples 2000
1e-07
2e-07
3e-07
5e-07
6e-07
7e-07
9e-07
9e-07
0
1.1e-06
1.2e-06
1.2e-06
0
1.3e-06
1.4e-06
1.5e-06
1.5e-06
5
1.4e-06
1.4e-06
0
1.2e-06
1.2e-06
0
1e-06
9e-07
7e-07
5e-07
3e-07
1e-07
-1e-07
-4e-07
-7e-07
-1e-06
-1.3e-06
-1.6e-06
-2e-06
-2.4e-06
-2.7e-06
-3.2e-06
-3.5e-06
-4e-06
-4.4e-06
3e-07
5.3e-06
5.9e-06
6.3e-06
6.7e-06
7.3e-06
7.8e-06
8.2e-06
8.8e-06
9.3e-06
9.7e-06
1.03e-05
1.07e-05
1.12e-05
1.17e-05
1.22e-05
1.26e-05
1.3e-05
1.35e-05
1.38e-05
1.43e-05
1.45e-05
1.5e-05
1.52e-05
1.55e-05
1.58e-05
1.6e-05
1.62e-05
1.64e-05
1.64e-05
0
1.66e-05
1.66e-05
2
1.65e-05
1.64e-05
1.63e-05
1.6e-05
1.57e-05
1.55e-05
1.51e-05
1.46e-05
1.43e-05
1.37e-05
1.31e-05
1.26e-05
1.18e-05
1.12e-05
1.03e-05
9.6e-06
8.6e-06
7.8e-06
6.7e-06
5.8e-06
4.6e-06
3.5e-06
2.3e-06
1.1e-06
-2e-07
-1.6e-06
-2.9e-06
-4.3e-06
-5.7e-06
-7.3e-06
-8.7e-06
-1.04e-05
-1.19e-05
-1.35e-05
-1.52e-05
-1.69e-05
-1.86e-05
-2.03e-05
-2.2e-05
-2.38e-05
-2.55e-05
-2.73e-05
-2.9e-05
-3.09e-05
-3.26e-05
-3.43e-05
-3.61e-05
-3.78e-05
-3.96e-05
-4.12e-05
-4.29e-05
-4.45e-05
-4.61e-05
6.6e-06
4.92e-05
5.07e-05
5.21e-05
5.35e-05
5.49e-05
5.61e-05
5.72e-05
5.84e-05
5.95e-05
6.04e-05
6.14e-05
6.21e-05
6.28e-05
6.35e-05
6.41e-05
6.44e-05
6.48e-05
6.51e-05
6.51e-05
0
6.52e-05
6.51e-05
6.49e-05
6.45e-05
6.41e-05
6.36e-05
6.28e-05
6.2e-05
6.11e-05
6.01e-05
5.88e-05
5.75e-05
5.6e-05
5.45e-05
5.27e-05
5.09e-05
4.89e-05
4.69e-05
4.45e-05
4.22e-05
3.98e-05
3.71e-05
3.43e-05
3.16e-05
2.85e-05
2.54e-05
2.23e-05
1.89e-05
1.54e-05
1.2e-05
8.3e-06
4.6e-06
7e-07
-3.1e-06
-7.1e-06
-1.12e-05
-1.54e-05
-1.95e-05
-2.39e-05
-2.81e-05
-3.26e-05
-3.69e-05
-4.14e-05
-4.59e-05
-5.05e-05
-5.49e-05
-5.95e-05
-6.4e-05
-6.86e-05
-7.31e-05
-7.76e-05
-8.21e-05
-8.66e-05
-9.09e-05
-9.53e-05
-9.96e-05
-0.0001038
-0.000108
-0.000112
-0.0001161
-0.0001199
-0.0001236
-0.0001274
-0.0001308
-0.0001343
-0.0001375
-0.0001407
3.2e-05
0.0001464
0.000149
0.0001515
0.0001537
0.0001559
0.0001577
0.0001594
0.0001608
0.0001621
0.0001632
0.0001639
0.0001645
0.0001649
0.0001649
0
0.0001648
0.0001643
0.0001637
0.0001628
0.0001615
0.0001602
0.0001584
0.0001564
0.0001542
0.0001516
0.0001489
0.0001457
0.0001425
0.0001388
0.0001349
0.0001308
0.0001264
0.0001217
0.0001167
0.0001115
0.0001061
0.0001004
9.44e-05
8.82e-05
8.17e-05
7.51e-05
6.82e-05
6.11e-05
5.38e-05
4.63e-05
3.85e-05
3.07e-05
2.25e-05
1.44e-05
5.9e-06
-2.6e-06
-1.13e-05
-2.01e-05
-2.91e-05
-3.8e-05
-4.72e-05
-5.64e-05
-6.56e-05
-7.5e-05
-8.43e-05
-9.37e-05
-0.0001031
-0.0001125
-0.0001218
-0.0001313
-0.0001405
-0.0001498
-0.000159
-0.0001681
-0.000177
-0.000186
-0.0001947
-0.0002033
-0.0002117
-0.00022
-0.0002281
-0.000236
-0.0002436
-0.000251
-0.0002582
-0.0002651
-0.0002717
-0.0002781
-0.0002841
-0.0002898
-0.0002952
-0.0003002
9.38e-05
0.0003092
0.0003132
0.0003168
0.0003199
0.0003227
0.0003249
0.0003269
0.0003283
0.0003294
0.0003299
0.00033
0.0003296
0.0003287
0.0003274
0.0003257
0.0003233
0.0003205
0.0003172
0.0003135
0.0003091
0.0003044
0.0002991
0.0002934
0.000287
0.0002803
0.0002731
0.0002653
0.0002571
0.0002484
0.0002392
0.0002296
0.0002195
0.000209
0.000198
0.0001866
0.0001748
0.0001626
0.00015
0.000137
0.0001236
0.0001099
9.59e-05
8.15e-05
6.68e-05
5.19e-05
3.66e-05
2.12e-05
5.4e-06
-1.05e-05
-2.66e-05
-4.29e-05
-5.94e-05
-7.6e-05
-9.26e-05
-0.0001094
-0.0001263
-0.0001432
-0.00016
-0.0001769
-0.0001938
-0.0002106
-0.0002273
-0.000244
-0.0002604
-0.0002768
-0.0002929
-0.0003089
-0.0003246
-0.0003401
-0.0003553
-0.0003701
-0.0003847
-0.000399
-0.0004127
-0.0004262
-0.0004391
-0.0004517
-0.0004638
-0.0004754
-0.0004864
-0.000497
-0.0005069
-0.0005163
-0.0005251
-0.0005332
-0.0005407
0.0002156
0.0005538
0.0005593
0.0005641
0.0005681
0.0005715
0.000574
0.0005759
0.0005769
0.0005771
0.0005766
0.0005752
0.0005731
0.0005702
0.0005663
0.0005617
0.0005563
0.0005499
0.0005429
0.0005349
0.0005262
0.0005165
0.0005061
0.0004949
0.0004828
0.00047
0.0004563
0.0004419
0.0004266
0.0004107
0.000394
0.0003765
0.0003583
0.0003395
0.0003199
0.0002997
0.0002788
0.0002574
0.0002353
0.0002126
0.0001894
0.0001658
0.0001415
0.0001169
9.17e-05
6.62e-05
4.04e-05
1.41e-05
-1.25e-05
-3.92e-05
-6.64e-05
-9.36e-05
-0.0001211
-0.0001486
-0.0001764
-0.0002041
-0.0002319
-0.0002597
-0.0002873
-0.000315
-0.0003426
-0.0003698
-0.000397
-0.0004238
-0.0004505
-0.0004767
-0.0005026
-0.0005281
-0.0005532
-0.0005777
-0.0006018
-0.0006252
-0.0006481
-0.0006704
-0.0006919
-0.0007128
-0.0007329
-0.0007523
-0.0007707
-0.0007884
-0.0008051
-0.000821
-0.0008359
-0.0008498
-0.0008627
-0.0008746
-0.0008854
0.0004299
0.0009037
0.0009112
0.0009175
0.0009226
0.0009265
0.0009292
0.0009307
0.0009309
0.0009299
0.0009276
0.000924
0.000919
0.0009129
0.0009054
0.0008966
0.0008865
0.0008751
0.0008624
0.0008484
0.000833
0.0008165
0.0007986
0.0007794
0.0007591
0.0007374
0.0007146
0.0006906
0.0006653
0.0006389
0.0006114
0.0005828
0.0005531
0.0005224
0.0004905
0.0004578
0.0004241
0.0003895
0.000354
0.0003176
0.0002805
0.0002427
0.000204
0.0001648
0.0001249
8.45e-05
4.35e-05
2.1e-06
-3.98e-05
-8.19e-05
-0.0001245
-0.0001672
-0.0002103
-0.0002533
-0.0002965
-0.0003398
-0.000383
-0.0004261
-0.0004691
-0.0005118
-0.0005543
-0.0005965
-0.0006383
-0.0006796
-0.0007204
-0.0007607
-0.0008003
-0.0008392
-0.0008775
-0.0009148
-0.0009514
-0.0009869
-0.0010216
-0.0010551
-0.0010877
-0.0011189
-0.0011492
-0.001178
-0.0012056
-0.0012319
-0.0012567
-0.0012801
-0.001302
-0.0013224
-0.0013411
-0.0013583
-0.0013739
0.0007866
0.0013997
0.00141
0.0014186
0.0014252
0.0014302
0.0014331
0.0014341
0.0014334
0.0014306
0.0014259
0.0014192
0.0014106
0.0013999
0.0013874
0.0013728
0.0013563
0.0013377
0.0013173
0.0012947
0.0012704
0.001244
0.0012158
0.0011855
0.0011535
0.0011196
0.0010839
0.0010464
0.0010071
0.0009661
0.0009234
0.000879
0.0008331
0.0007856
0.0007367
0.0006861
0.0006344
0.0005811
0.0005266
0.000471
0.000414
0.0003561
0.0002971
0.0002372
0.0001763
0.0001146
5.23e-05
-1.09e-05
-7.45e-05
-0.0001386
-0.0002033
-0.0002681
-0.0003334
-0.0003988
-0.0004642
-0.0005297
-0.000595
-0.0006603
-0.0007253
-0.0007899
-0.000854
-0.0009177
-0.0009807
-0.001043
-0.0011046
-0.0011652
-0.0012248
-0.0012835
-0.0013409
-0.0013972
-0.001452
-0.0015055
-0.0015575
-0.0016078
-0.0016567
-0.0017036
-0.0017488
-0.0017921
-0.0018335
-0.0018727
-0.0019098
-0.0019448
-0.0019776
-0.0020079
-0.0020359
-0.0020616
-0.0020846
0.0013757
0.0021231
0.0021384
0.0021509
0.0021608
0.0021679
0.0021721
0.0021735
0.0021721
0.0021677
